30, 0.0
31, 0.0
32, 0.0
33, 0.0
34, 0.0
35, 0.0
36, 0.0
37, 0.0
38, 0.0
39, 0.0
40, 0.0
41, 0.0
42, 0.0
43, 0.0
44, 0.0
45, 0.0
46, 0.0
47, 0.0
48, 0.0
49, 0.0
50, 0.0
51, 0.0
52, 0.0
53, 0.0
54, 0.0
55, 0.0
56, 0.0
57, 0.0
58, 0.0
59, 0.0
60, 0.0
61, 0.0
62, 0.0
63, 0.0
64, 0.0
65, 0.0
66, 0.0
67, 0.0
68, 0.0
69, 0.0
70, 0.0
71, 0.0
72, 0.0
73, 0.0
74, 0.0
75, 0.0
76, 0.0
77, 0.0
78, 0.0
79, 0.0
80, 0.0
81, 0.0
82, 0.0
83, 0.0
84, 0.0
85, 0.0
86, 0.0
87, 0.0
88, 0.0
89, 0.0
90, 0.0
91, 0.0
92, 0.0
93, 0.0
94, 0.0
95, 0.0
96, 0.0
97, 0.0
98, 0.0
99, 0.0
100, 0.0
101, 0.0
102, 0.0
103, 0.0
104, 0.0
105, 0.0
106, 0.0
107, 0.0
108, 0.0
109, 0.0
110, 0.0
111, 0.0
112, 0.0
113, 0.0
114, 0.0
115, 0.0
116, 0.0
117, 0.0
118, 0.0
119, 0.0
120, 0.0
121, 0.0
122, 0.0
123, 0.0
124, 0.0
125, 0.0
126, 0.0
127, 0.0
128, 0.0
129, 0.0
130, 0.0
131, 0.0
132, 0.0
133, 0.0
134, 0.0
135, 0.0
136, 0.0
137, 0.0
138, 0.0
139, 0.0
140, 0.0
141, 0.0
142, 0.0
143, 0.0
144, 0.0
145, 0.0
146, 0.0
147, 0.0
148, 0.0
149, 0.0
150, 0.0
151, 0.0
152, 0.0
153, 0.0
154, 0.0
155, 0.0
156, 0.0
157, 0.0
158, 0.0
159, 0.0
160, 0.0
161, 0.0
162, 0.0
163, 0.0
164, 0.0
165, 0.0
166, 0.0
167, 0.0
168, 0.0
169, 0.0
170, 0.0
171, 0.0
172.0, 0.001557893920192187
173.0, 0.009627262506473904
174.0, 0.023098613794156446
175.0, 0.0444871737362937
176.0, 0.06410060652074592
177.0, 0.09107458866210409
178.0, 0.11305417406236755
179.0, 0.11919254332487042
180.0, 0.11167248685764815
181.0, 0.07978106353285984
182.0, 0.05306622748294634
183.0, 0.03254547206179821
184.0, 0.013649032893281475
185.0, 0.011553744301312147
186.0, 0.00702469623551196
187.0, 0.004452609567842541
188.0, 0.011784666905722406
189.0, 0.007067819432151211
190.0, 0.0069069711531156925
191.0, 0.011158109990070993
192.0, 0.019673731377735176
193.0, 0.021110221341308962
194.0, 0.01948771020822407
195.0, 0.016142320007725548
196.0, 0.019486335285383877
197.0, 0.027729486708184592
198.0, 0.03046479984581012
199.0, 0.03836419048300996
200.0, 0.04277724782406884
201.0, 0.04632236408953529
202.0, 0.05280921504135985
203.0, 0.058107316880262834
204.0, 0.058399854139142074
205.0, 0.05908284052291108
206.0, 0.06425291593453317
207.0, 0.07382708010085151
208.0, 0.08173402118911385
209.0, 0.07941426439538644
210.0, 0.08509597069137541
211.0, 0.10129556977229928
212.0, 0.11052243032169287
213.0, 0.1199274695463602
214.0, 0.13376139661017206
215.0, 0.15017611768137953
216.0, 0.16726441965953012
217.0, 0.19464407582226664
218.0, 0.21568402646203122
219.0, 0.2398360426415314
220.0, 0.2682561920144875
221.0, 0.2902340922217117
222.0, 0.30827278126037283
223.0, 0.3097949598085319
224.0, 0.29526378387367086
225.0, 0.27336800574488535
226.0, 0.24772224237497842
227.0, 0.2301043158725449
228.0, 0.21331822098957967
229.0, 0.20950203671781106
230.0, 0.2185532334585882
231.0, 0.21112724330571483
232.0, 0.19414754858657104
233.0, 0.17689136539351735
234.0, 0.15694761597689122
235.0, 0.1312703553996784
236.0, 0.11429050672765721
237.0, 0.10037298424489664
238.0, 0.08556293146772054
239.0, 0.07263655503659935
240.0, 0.06813571815299156
241.0, 0.0734512086267998
242.0, 0.07478666717116284
243.0, 0.06943184352976742
244.0, 0.061796983359309554
245.0, 0.07106495776573184
246.0, 0.08383180601828272
247.0, 0.0824553326834763
248.0, 0.07457088669626953
249.0, 0.08027496171221231
250.0, 0.08212049874198539
251.0, 0.07442119883443009
252.0, 0.07002364049073939
253.0, 0.06172890647469656
254.0, 0.040583128302785626
255.0, 0.04356175535549171
256.0, 0.03244499934660935
257.0, 0.02762769254667594
258.0, 0.034801557154238515
259.0, 0.03345432060798811
260.0, 0.034044051505778425
261.0, 0.037989889667526165
262.0, 0.03834135568920928
263.0, 0.033171966424215396
264.0, 0.029857014648948566
265.0, 0.02637832580671072
266.0, 0.021507366348121816
267.0, 0.01440374848770792
268.0, 0.008355859623996216
269.0, 0.011823933518430358
270.0, 0.009703565951602378
271.0, 0.011571544901314266
272.0, 0.01111388625072783
273.0, 0.0014150904459607181
274.0, 0.009118014967129039
275.0, 0.003041765577350318
276.0, 0.0044779295053579546
277.0, 0.008697886934004632
278.0, 0.002803846259458019
279.0, 0.0019589812592555366
280.0, 0.0006129738439465304
281.0, 0.0012010819090021749
282.0, 0.0075244000983258705
283.0, 0.014508598962773523
284.0, 0.01608071855652834
285.0, 0.011330320425875777
286.0, 0.013659315227796304
287.0, 0.024325786707571295
288.0, 0.027803293775445607
289.0, 0.029862776681548797
290.0, 0.02731996526537087
291.0, 0.023977730032959346
292.0, 0.024329063139285994
293.0, 0.02616767161776425
294.0, 0.021008779280822162
295.0, 0.020285188187019992
296.0, 0.01899583974868565
297.0, 0.014400696028907638
298.0, 0.013805654294422183
299.0, 0.020725371412222946
300.0, 0.018785118343134545
301.0, 0.017795016506148384
302.0, 0.02518115945437279
303.0, 0.034626201071182416
304.0, 0.03268802425009093
305.0, 0.025225614573068725
306.0, 0.019510472301637855
307.0, 0.017751804867302774
308.0, 0.017562097925931445
309.0, 0.016841090299138772
310.0, 0.020441180111476588
311.0, 0.022690521406397
312.0, 0.0186717832453431
313.0, 0.013426029905053928
314.0, 0.018106962397868145
315.0, 0.014225489861160128
316.0, 0.0032288717277434665
317.0, 0.006567020038694023
318.0, 0.008151642069294373
319.0, 0.00857020771272695
320.0, 0.0014904465468972433
321.0, 0.0022627555908269156
322.0, 0.003952981234430008
323.0, 0.010062513574798721
324.0, 0.003521291417802214
325.0, 0.009400085164037003
326.0, 0.0175193104661431
327.0, 0.015408771611821585
328.0, 0.01044447417178783
329.0, 0.01777697229463947
330.0, 0.01873704922983643
331.0, 0.020002774603097302
332.0, 0.027074641159687003
333.0, 0.027828893954200403
334.0, 0.025512489212645834
335.0, 0.013053893484205707
336.0, 0.012632347413732523
337.0, 0.020706065595878252
338.0, 0.016346491511582704
339.0, 0.023477110093313974
340.0, 0.0243724873574117
341.0, 0.018584788825226416
342.0, 0.014947572227834447
343.0, 0.02018860705368542
344.0, 0.03307448717803066
345.0, 0.03538492464567608
346.0, 0.04187651669819502
347.0, 0.052673810326842166
348.0, 0.05505317052925988
349.0, 0.050411931204374455
350.0, 0.05643914918043954
351.0, 0.06326927744352485
352.0, 0.06811580812776942
353.0, 0.07131375678110838
354.0, 0.06325206791076197
355.0, 0.05863815035017573
356.0, 0.06833794346683905
357.0, 0.07692026716565266
358.0, 0.07176776781819783
359.0, 0.06583438645248145
360.0, 0.05735528253216214
361.0, 0.06771022929979058
362.0, 0.08542042017113141
363.0, 0.096780319549649
364.0, 0.10580051467586303
365.0, 0.12055648056325347
366.0, 0.13844888366350666
367.0, 0.15673075230866004
368.0, 0.1720834490590916
369.0, 0.18257205539740487
370.0, 0.19735124056955403
371.0, 0.18653337426287808
372.0, 0.16947778964338564
373.0, 0.156666546316364
374.0, 0.13978807411491279
375.0, 0.13325258349823657
376.0, 0.11405222356925056
377.0, 0.10345380717735908
378.0, 0.10179858604992308
379.0, 0.09502963916488
380.0, 0.08918335162209345
381.0, 0.0807666071710526
382.0, 0.07781302900341786
383.0, 0.08144808264454417
384.0, 0.08499557455855664
385.0, 0.0835589390705108
386.0, 0.09586423617448997
387.0, 0.104763501026455
388.0, 0.11302058946940667
389.0, 0.13274887021875295
390.0, 0.16371580030990593
391.0, 0.1928197317278166
392.0, 0.1967484688722516
393.0, 0.20864094541040096
394.0, 0.21820885919254826
395.0, 0.20109760674126353
396.0, 0.18324583501896857
397.0, 0.15445244034403918
398.0, 0.1257574159652504
399.0, 0.10200959923942848
400.0, 0.08589819743730033
401.0, 0.08351951120692434
402.0, 0.07441358895098187
403.0, 0.0576111540826101
404.0, 0.0636791660329341
405.0, 0.07429290215447079
406.0, 0.05899198808769959
407.0, 0.057009330310503814
408.0, 0.06508110409457785
409.0, 0.07130674008123097
410.0, 0.07786625575347078
411.0, 0.0881918655033133
412.0, 0.09676435778704678
413.0, 0.10742354495546125
414.0, 0.12049799512919217
415.0, 0.12486681904974027
416.0, 0.11917867539084659
417.0, 0.11394869232385034
418.0, 0.1098417839980033
419.0, 0.0979342391705657
420.0, 0.08132371376170931
421.0, 0.06982113533156449
422.0, 0.065733443638527
423.0, 0.05837809092222688
424.0, 0.05926747665618853
425.0, 0.05005438367269589
426.0, 0.03864349487613634
427.0, 0.0304654599826408
428.0, 0.020424445457103108
429.0, 0.017514378714933176
430.0, 0.02847804616598512
431.0, 0.029762493226048174
432.0, 0.026206096534124285
433.0, 0.03234896835665815
434.0, 0.036835367278760064
435.0, 0.03831664719143671
436.0, 0.030602823705203275
437.0, 0.02421796102538181
438.0, 0.022950793571972838
439.0, 0.0200740823880709
440.0, 0.01577086468397284
441.0, 0.017552801467253364
442.0, 0.015357713456023813
443.0, 0.007403878840797386
444.0, 0.001517688427919877
445.0, 0.011581540230501843
446.0, 0.011643207164543088
447.0, 0.0100312384074265
448.0, 0.007793041805928484
449.0, 0.008889084006126079
450.0, 0.010728246815643635
451.0, 0.010249191007568157
452.0, 0.010054409740183195
453.0, 0.0024896226029169355
454.0, 0.008121172163017191
455.0, 0.00614390785567335
456.0, 0.01065699531570488
457.0, 0.014413194344635177
458.0, 0.005410093804390297
459.0, 0.0018320219856462678
460.0, 0.004473615913900837
461.0, 0.005199939479753714
462.0, 0.0005967311323064119
463.0, 0.003445225910968609
464.0, 0.007715466226546338
465.0, 0.004427129762759521
466.0, 0.0010068293999963818
467.0, 0.0010502396036439238
468.0, 0.006693680855354878
469.0, 0.0016851876858017224
470.0, 0.004586404727081128
471.0, 0.013894256496233515
472.0, 0.014341798201714577
473.0, 0.006966612384475891
474.0, 0.0013778222333900865
475.0, 0.001212669725786635
476.0, 0.0065553266877509675
477.0, 0.012123706892329649
478.0, 0.01096390949190965
479.0, 0.007126941424839582
480.0, 0.004583301719992215
481.0, 0.003043746479545029
482.0, 0.009577982596059315
483.0, 0.01749843885958724
484.0, 0.01890487256205897
485.0, 0.023565166597496703
486.0, 0.02885901580068798
487.0, 0.023259902083488507
488.0, 0.015511562762155392
489.0, 0.016443045055843382
490.0, 0.023566102420708862
491.0, 0.01653933758613465
492.0, 0.016735029725531838
493.0, 0.02147902076834081
494.0, 0.025215030890977798
495.0, 0.027675621813316082
496.0, 0.0304275343464138
497.0, 0.029820557275571032
498.0, 0.020032226461339335
499.0, 0.017092236182742956
500.0, 0.022902880454923738
501.0, 0.028386129922757408
502.0, 0.023240599675861846
503.0, 0.020300554738681285
504.0, 0.03287081632087723
505.0, 0.038405676943030924
506.0, 0.030109910827889365
507.0, 0.025923878570138253
508.0, 0.04073461880206235
509.0, 0.0431806647372531
510.0, 0.06510257183124335
511.0, 0.06511501921871453
512.0, 0.05755797462799853
513.0, 0.06333914270002676
514.0, 0.06843761927071135
515.0, 0.0625095666393871
516.0, 0.06247532720749828
517.0, 0.06561770578875087
518.0, 0.06262437134318005
519.0, 0.05791453873246202
520.0, 0.0630530190273982
521.0, 0.06906744774098289
522.0, 0.06931436545149028
523.0, 0.065766636153534
524.0, 0.062472829488747224
525.0, 0.06174120738333764
526.0, 0.06410034633970275
527.0, 0.07600972623597627
528.0, 0.0782958523611738
529.0, 0.07815455832657313
530.0, 0.08018098491034223
531.0, 0.07725582691054833
532.0, 0.06661856363445284
533.0, 0.07268788927599053
534.0, 0.05342384126924267
535.0, 0.0491959290270882
536.0, 0.06173482585804195
537.0, 0.06344277620197124
538.0, 0.045442726666358645
539.0, 0.058712449823421844
540.0, 0.0505427711273261
541.0, 0.0360445532048794
542.0, 0.03433891460529174
543.0, 0.04352186066707287
544.0, 0.04621781397012542
545.0, 0.03148596342250761
546.0, 0.02892663698231436
547.0, 0.02552295407286027
548.0, 0.024754369060589566
549.0, 0.026731316968751504
550.0, 0.023859252377112786
551.0, 0.016342391986157594
552.0, 0.025821534947597053
553.0, 0.019337224886009814
554.0, 0.018657284685320356
555.0, 0.01829918186464745
556.0, 0.013092426842394658
557.0, 0.01893390528611649
558.0, 0.027044588610306165
559.0, 0.03088381241584744
560.0, 0.027844495437581985
561.0, 0.03024218163457934
562.0, 0.0328899184315208
563.0, 0.02359263381359614
564.0, 0.030525245415693486
565.0, 0.02661350337466095
566.0, 0.03278632050873514
567.0, 0.03696193040514095
568.0, 0.027250710145782182
569.0, 0.016507734998164044
570.0, 0.027026315016500144
571.0, 0.019570403890987617
572.0, 0.030020652708351983
573.0, 0.029086405669523405
574.0, 0.019561212168911903
575.0, 0.024208888049766904
576.0, 0.023771308484452237
577.0, 0.03143928570835376
578.0, 0.03254045902264829
579.0, 0.026959519097593938
580.0, 0.02355403146042815
581.0, 0.02503891085375142
582.0, 0.025588006502944828
583.0, 0.020375284603417025
584.0, 0.021201223410242418
585.0, 0.016043768720445033
586.0, 0.007358531519021877
587.0, 0.005113026647971245
588.0, 0.008915963928426354
589.0, 0.0065144665039167295
590.0, 0.0007343549979671322
591.0, 0.00013039197176879902
592.0, 0.002949090477350104
593.0, 0.0070912625797420826
594.0, 0.006647281010688429
595.0, 0.00480724076262652
596.0, 0.001455474237230231
597.0, 0.013364964969694818
598.0, 0.008742633011152651
599.0, 0.0061616973369255324
600.0, 0.007418755459280679
601.0, 0.0028170240777651476
602.0, 0.005435766700974956
603.0, 0.0018487729048679866
604.0, 0.0060703967310672385
605.0, 0.003306768024100577
606.0, 0.0021334153793423115
607.0, 0.003079385536931614
608.0, 0.0007627191566980699
609.0, 0.005828278706444326
610.0, 0.0026606427514497444
611.0, 0.001369897779817049
612.0, 0.0023473741150054606
613.0, 0.003743691940058315
614.0, 0.0025811698311854303
615.0, 0.008750989784548859
616.0, 0.005081036718700762
617.0, 0.009574678562338077
618.0, 0.0023153235986309614
619.0, 0.005677261883540353
620.0, 0.004148945275497946
621.0, 0.0040249420023651845
622.0, 0.004161853219097213
623.0, 0.0017340888388398157
624.0, 0.011296990288579839
625.0, 0.00997714403748419
626.0, 0.00880109085500533
627.0, 0.014528811746321311
628.0, 0.015672069792887027
629.0, 0.018612718610886765
630.0, 0.010715373544885784
631.0, 0.006190445713332831
632.0, 0.020753314314037825
633.0, 0.03028533839977296
634.0, 0.01926931005090555
635.0, 0.007567254760521905
636.0, 0.019289038364865646
637.0, 0.023336625610841925
638.0, 0.022819180371262154
639.0, 0.025001720262156753
640.0, 0.03161637716232864
641.0, 0.03949089869609144
642.0, 0.04373447986060352
643.0, 0.04014805198765009
644.0, 0.0386315643462784
645.0, 0.05345082036853044
646.0, 0.06016224382058141
647.0, 0.05914161176707546
648.0, 0.06553517181405599
649.0, 0.07924239072671929
650.0, 0.09309334017052863
651.0, 0.09699209609105318
652.0, 0.11630293455418272
653.0, 0.11716546014720622
654.0, 0.11576111006537376
655.0, 0.13717399976001451
656.0, 0.15981456890524645
657.0, 0.1663604958152693
658.0, 0.18184597734576613
659.0, 0.20931749303742692
660.0, 0.23847852342497813
661.0, 0.2712697391710038
662.0, 0.31185145180488133
663.0, 0.35755691069332357
664.0, 0.41060898871344187
665.0, 0.47678295886148725
666.0, 0.538256498437667
667.0, 0.6135122969355997
668.0, 0.7005329943750747
669.0, 0.7857233003357017
670.0, 0.8691680276701272
671.0, 0.943292140744371
672.0, 0.993317555430844
673.0, 0.9909500930257535
674.0, 0.9440008720474378
675.0, 0.8561589709871255
676.0, 0.7401840377807106
677.0, 0.6248666312247291
678.0, 0.5217666165494663
679.0, 0.4188996856583729
680.0, 0.33703029961142483
681.0, 0.2778895092416627
682.0, 0.2336297712448825
683.0, 0.19921999132089496
684.0, 0.17066194080824681
685.0, 0.14112013251837552
686.0, 0.12693679250696263
687.0, 0.1049360192948651
688.0, 0.10282807582981311
689.0, 0.09686793713241242
690.0, 0.08063517324353507
691.0, 0.07182031629902923
692.0, 0.06809096686409498
693.0, 0.0619859568626043
694.0, 0.057429999631508154
695.0, 0.05972769569554892
696.0, 0.056677015895838324
697.0, 0.04645540957976247
698.0, 0.04028831812846462
699.0, 0.039263204055153406
700.0, 0.02634232552711845
701.0, 0.029164658300894514
702.0, 0.026920628152331514
703.0, 0.028192925524097433
704.0, 0.027595390852993743
705.0, 0.021860304056331287
706.0, 0.017528589862939026
707.0, 0.016190610264970314
708.0, 0.02127072370050248
709.0, 0.02110348555732598
710.0, 0.014185684811928195
711.0, 0.00797309898940811
712.0, 0.0027590022919359272
713.0, 0.006324754817426913
714.0, 0.007340805844654602
715.0, 0.0002630335307831225
716.0, 0.013204808862457996
717.0, 0.014360273595077959
718.0, 0.015362999379704916
719.0, 0.009439686436526047
720.0, 0.006427571513933478
721.0, 0.013295786990609496
722.0, 0.009045260460938708
723.0, 0.014625207007343908
724.0, 0.014270373022200947
725.0, 0.010081634515062428
726.0, 0.006748655187667717
727.0, 0.008905703901583855
728.0, 0.010440844966617839
729.0, 0.009372080351296606
730.0, 0.01750348603254445
731.0, 0.008594825501950783
732.0, 0.018246129828759425
733.0, 0.011470374923601093
734.0, 0.008118569698806224
735.0, 0.015279842384270638
736.0, 0.020709489433973757
737.0, 0.028613091162990555
738.0, 0.02882786865705681
739.0, 0.03497563211833826
740.0, 0.038634196457399725
741.0, 0.04303508825778805
742.0, 0.0452805415329307
743.0, 0.03880418044856266
744.0, 0.03170054319185081
745.0, 0.041448551040394147
746.0, 0.04237470305688011
747.0, 0.04947128155593462
748.0, 0.047956262354381704
749.0, 0.04536046262944734
750.0, 0.047257173888787786
751.0, 0.051032099171998524
752.0, 0.049551415780318096
753.0, 0.03725457898684214
754.0, 0.025154217494918942
755.0, 0.03654424117606953
756.0, 0.018914878271272386
757.0, 0.010133145712273322
758.0, 0.017137504167807703
759.0, 0.01914456219300182
760.0, 0.008977897457006386
761.0, 0.008859364169697978
762.0, 0.024811366638863203
763.0, 0.005737212315365307
764.0, 0.0020373709231314686
765.0, 0.0045643801506674835
766.0, 0.0031775955591560844
767.0, 0.0037216072937978715
768.0, 0.010329410108451526
769.0, 0.0018840318408528027
770.0, 0.012912906898733473
771.0, 0.008262470969458743
772.0, 0.00970781765255269
773.0, 0.007599060569843104
774.0, 0.0062865818047249875
775.0, 0.004654947831949916
776.0, 0.002991527751450613
777.0, 0.004691428107889216
778.0, 0.0054052428678135365
779.0, 0.009115426992173775
780.0, 0.005819230506192709
781.0, 0.005543491884516275
782.0, 0.00046486973667827624
783.0, 0.0025344045633314666
784.0, 0.0031372540940408575
785.0, 0.0051665818861094896
786.0, 0.0071030432936668225
787.0, 0.009426899771864896
788.0, 0.01709062255353987
789.0, 0.014946335236752324
790.0, 0.008235036563549777
791.0, 0.009641868865727782
792.0, 0.007873631154972275
793.0, 0.0007074585868550925
794.0, 0.006440519920518725
795.0, 0.012661243243531845
796.0, 0.006491433482953361
797.0, 0.004777088688382998
798.0, 0.012706512739642847
799.0, 0.004178978599650221
800.0, 0.0035157163242762394
801.0, 0.018354878880507634
802.0, 0.016363104721846187
803.0, 0.0060621353012293025
804.0, 0.0013224488395484726
805.0, 0.0006186008281193307
806.0, 0.003427878635076486
807.0, 0.000819673769388827
808.0, 0.0025003622084130844
809.0, 0.0033574957728283667
810.0, 0.0025441706740504076
811.0, 0.008313190423672435
812.0, 0.005568635253771676
813.0, 0.009690405112164444
814.0, 0.011849546734589973
815.0, 0.00880095663824289
816.0, 0.001488689207951612
817.0, 0.015693169177612924
818.0, 0.024692811678407152
819.0, 0.015786655138582954
820.0, 0.019148946814166866
821.0, 0.011394795653957956
822.0, 0.012659623957727097
823.0, 0.006065410575382657
824.0, 0.005489595305774075
825.0, 0.008269195504767958
826.0, 0.013911227604400785
827.0, 0.024086870754269615
828.0, 0.024772014848676673
829.0, 0.0026001284849820907
830.0, 0.0004160656468585729
831.0, 0.0011035964096589575
832.0, 0.01582744382871748
833.0, 0.018202258654018547
834.0, 0.011110472128035207
835.0, 0.005376620408984829
836.0, 0.0062499085418506305
837.0, 0.009303296922176312
838.0, 0.00879714212020582
839.0, 0.01406584454929648
840.0, 0.007130489727963076
841.0, 0.001439234038646592
842.0, 0.0036163405498119148
843.0, 0.005104470457695654
844.0, 0.01518184295017564
845.0, 0.015236663418494008
846.0, 0.007898116474212612
847.0, 0.003038795115656782
848.0, 0.016493799155540088
849.0, 0.0037919533373563046
850.0, 0.003453528537465539
851.0, 0.002208767847891487
852.0, 0.004922485874940062
853.0, 0.011435244473469948
854.0, 0.007103944198322118
855.0, 0.0016742933323715917
856.0, 0.0037986771586431146
857.0, 0.012868567388113622
858.0, 0.008398258163609373
859.0, 0.0048815645757430345
860.0, 0.006711308549909641
861.0, 0.014728173172464125
862.0, 0.014975343065487123
863.0, 0.010367937281104682
864.0, 0.009504787927970831
865.0, 0.009855071991060449
866.0, 0.005498478830701628
867.0, 0.006251689649373442
868.0, 0.0160094170718123
869.0, 0.019784389700494974
870.0, 0.021661574861277056
871.0, 0.013991797479778016
872.0, 0.0048401813264984045
873.0, 0.0020027159619864098
874.0, 0.0008518225140302224
875.0, 0.008052657243074792
876.0, 0.009726735172854988
877.0, 0.010923251552384057
878.0, 0.012107498637038243
879.0, 0.007996456385390073
880.0, 0.006790231308323049
881.0, 0.013913661532493314
882.0, 0.011351293969749944
883.0, 0.0061199268811911985
884.0, 0.008333510696934446
885.0, 0.00501480262610651
886.0, 0.0011586862370742096
887.0, 0.0010010741177800876
888.0, 0.00674984869351373
889.0, 0.017940497790934935
890.0, 0.014554290739613904
891.0, 0.015644097707004798
892.0, 0.008497655473701272
893.0, 0.004567477678860611
894.0, 0.01173849905286117
895.0, 0.016531287330240164
896.0, 0.016831432376160853
897.0, 0.018839786706261717
898.0, 0.023763990614111566
899.0, 0.01828965609242747
900.0, 0.015013467926139995
901.0, 0.007095498451461209
902.0, 0.01304079683133842
903.0, 0.017536436719745144
904.0, 0.012563553415116648
905.0, 0.012813563506903908
906.0, 0.01643281462889507
907.0, 0.024758545712905283
908.0, 0.010890149535893012
909.0, 0.022980755390021784
910.0, 0.025271838047168593
911.0, 0.02299386910594729
912.0, 0.014798255609412234
913.0, 0.01386346427787387
914.0, 0.019047267033137104
915.0, 0.01885935091805946
916.0, 0.017214489169704462
917.0, 0.012800495676451265
918.0, 0.026863546974921475
919.0, 0.024201554079749235
920.0, 0.03946242078953395
921.0, 0.03397047824230824
922.0, 0.039126216760097636
923.0, 0.04416304359780325
924.0, 0.04649393168451303
925.0, 0.05141946743450058
926.0, 0.05514972924874068
927.0, 0.058805189817985104
928.0, 0.062336720746886294
929.0, 0.05906720653873717
930.0, 0.0615291934863808
931.0, 0.06930171735839996
932.0, 0.05829600005748377
933.0, 0.04889268564252664
934.0, 0.04925906666032041
935.0, 0.04966796300547104
936.0, 0.04526528901308437
937.0, 0.03889517298383792
938.0, 0.030645660915677046
939.0, 0.023064703164588637
940.0, 0.020267135857135087
941.0, 0.012729015461520143
942.0, 0.022892388847297298
943.0, 0.029147549583144472
944.0, 0.01694040944843093
945.0, 0.01977337121253174
946.0, 0.031459685376115695
947.0, 0.02570717753167007
948.0, 0.01476323066918268
949.0, 0.02422666586609417
950.0, 0.027274932851522292
951.0, 0.014657457750244709
952.0, 0.01551157743019537
953.0, 0.014245328867657937
954.0, 0.017644890504871627
955.0, 0.016299465778047143
956.0, 0.0138293758920827
957.0, 0.006343211507127725
958.0, 0.0015268682226895125
959.0, 0.007286573632573033
960.0, 0.011586766799102845
961.0, 0.0029050842504990686
962.0, 0.0006262317881678668
963.0, 0.0011708330432887782
964.0, 0.0032724062540720063
965.0, 0.009622172408044765
966.0, 0.010010152850095894
967.0, 0.005442288221255058
968.0, 0.0005830680486333426
969.0, 0.0007633373831773061
970.0, 0.00043284351916801004
971.0, 0.0010863120398055548
972.0, 0.004563854398938869
973.0, 0.012245940313282588
974.0, 0.003091178759869304
975.0, 0.004501133337285736
976.0, 0.015027435094614931
977.0, 0.004271874260347241
978.0, 0.011653895814334375
979.0, 0.006187915465339074
980.0, 0.0014333734838513925
981.0, 0.008221008640121517
982.0, 0.0061682563473185684
983.0, 0.0022306549642534847
984.0, 0.003241841383405308
985.0, 0.013675987693310927
986.0, 0.012603801868523374
987.0, 0.007779933269927675
988.0, 0.013352316361578005
989.0, 0.0035796228465199637
990.0, 0.005894321332750469
991.0, 0.015187393309234267
992.0, 0.005686688469408388
993.0, 0.015458475637005415
994.0, 0.013584821823778917
995.0, 0.0018260424268089627
996.0, 0.012705630816366352
997.0, 0.012302966811235288
998.0, 0.006228710215086414
999.0, 0.009139139632199195
1000.0, 0.005600393347456184
1001.0, 0.009713932466636453
1002.0, 0.020462548761908877
1003.0, 0.013761175989101412
1004.0, 0.018388850314392382
1005.0, 0.021789503561599144
1006.0, 0.015002243245220847
1007.0, 0.020011474252900154
1008.0, 0.026103600155286382
1009.0, 0.01875292938581347
1010.0, 0.02318058129541317
1011.0, 0.03140181563813676
1012.0, 0.028969881068067777
1013.0, 0.035287090612771695
1014.0, 0.027408062143095026
1015.0, 0.03721133822089307
1016.0, 0.048350236577579336
1017.0, 0.03885464734258597
1018.0, 0.029494173954176518
1019.0, 0.04382393067646479
1020.0, 0.05471335406287547
1021.0, 0.055441160644360304
1022.0, 0.06727692357628927
1023.0, 0.08003163041021978
1024.0, 0.08334494330755622
1025.0, 0.0790490629795759
1026.0, 0.08749973046320492
1027.0, 0.09317083487763506
1028.0, 0.10438673329594608
1029.0, 0.10549770717387075
1030.0, 0.09145095611787409
1031.0, 0.08816941588095274
1032.0, 0.08412608164726837
1033.0, 0.07144460811694756
1034.0, 0.05815644193701001
1035.0, 0.04111105158431122
1036.0, 0.0390338884004123
1037.0, 0.03210693684474392
1038.0, 0.030174296968657283
1039.0, 0.029198665340737496
1040.0, 0.025630193466661785
1041.0, 0.025304816485331724
1042.0, 0.025480335649380827
1043.0, 0.028829044297355156
1044.0, 0.02742556823910537
1045.0, 0.02489783623973379
1046.0, 0.029786851593484053
1047.0, 0.041585233842238695
1048.0, 0.044106764535201
1049.0, 0.04893807548988184
1050.0, 0.06332357795344673
1051.0, 0.06629484543137187
1052.0, 0.0711692792263374
1053.0, 0.08410243431228392
1054.0, 0.0893389561549892
1055.0, 0.09725388644489445
1056.0, 0.09953699037773169
1057.0, 0.09573300979170868
1058.0, 0.1035785767441984
1059.0, 0.10361018867316452
1060.0, 0.1035684190672537
1061.0, 0.0963560633199506
1062.0, 0.0796248562859636
1063.0, 0.07316475018834818
1064.0, 0.07596824998872913
1065.0, 0.07696573165552732
1066.0, 0.07334482621574889
1067.0, 0.06322571463595418
1068.0, 0.07046057235304552
1069.0, 0.06857247529152741
1070.0, 0.05132302828231611
1071.0, 0.043500651035946906
1072.0, 0.04048701772710056
1073.0, 0.03562496338554974
1074.0, 0.031079197728138785
1075.0, 0.03278552342907507
1076.0, 0.029011937585681956
1077.0, 0.016038523365664796
1078.0, 0.00915565283879726
1079.0, 0.01370258676374048
1080.0, 0.014821081500874439
1081.0, 0.016188541850026605
1082.0, 0.025207808697352018
1083.0, 0.02307450437401862
1084.0, 0.018650479340864064
1085.0, 0.0070923905033676736
1086.0, 0.004669963115072747
1087.0, 0.006234420716230932
1088.0, 0.006808355980443957
1089.0, 0.007554512154083148
1090.0, 0.006358406177311201
1091.0, 0.0008287552315953582
1092.0, 0.009648319425670009
1093.0, 0.005671372653275068
1094.0, 0.0008804493726412147
1095.0, 0.0032279137847791802
1096.0, 0.009755242006445425
1097.0, 0.009891581296692495
1098.0, 0.0043110524426742515
1099.0, 0.004457931887134713
1100.0, 0.005855623183148957
1101.0, 0.0006953893305145452
1102.0, 0.0028396698517785313
1103.0, 0.0114098346887287
1104.0, 0.005553123839366712
1105.0, 0.0016323207849269325
1106.0, 0.01279971842013913
1107.0, 0.01282683693563633
1108.0, 0.010108165572116235
1109.0, 0.008748246355401265
1110.0, 0.009298285561837009
1111.0, 0.01626429860260884
1112.0, 0.013843949946792326
1113.0, 0.002415859443518938
1114.0, 0.002496311845174891
1115.0, 0.00569938601134026
1116.0, 0.009927424360309158
1117.0, 0.01846672376499377
1118.0, 0.003804434645263935
1119.0, 0.004569674636920421
1120.0, 0.017184031225662935
1121.0, 0.006504392210682279
1122.0, 0.004768004130810561
1123.0, 0.004931859922281944
1124.0, 0.004531162962282581
1125.0, 0.01488993696100412
1126.0, 0.013766497005815436
1127.0, 0.0075647313633399335
1128.0, 0.007322798514320085
1129.0, 0.0074953882386598145
1130.0, 0.005128414347224934
1131.0, 0.01430420133510216
1132.0, 0.01699764629216689
1133.0, 0.01401540466259378
1134.0, 0.01806574409447132
1135.0, 0.005825640132450572
1136.0, 0.0070012657652183926
1137.0, 0.004648332390232872
1138.0, 0.012645616168675454
1139.0, 0.00897116098106659
1140.0, 0.013948674767560506
1141.0, 0.008682905003208797
1142.0, 0.019480581608895736
1143.0, 0.023165693880517785
1144.0, 0.016498230167457634
1145.0, 0.019395283569093928
1146.0, 0.010478649601086904
1147.0, 0.010284164581564779
1148.0, 0.010647044849631564
1149.0, 0.01422038758227317
1150.0, 0.021418427659813912
1151.0, 0.012748793100771566
1152.0, 0.004234485925733886
1153.0, 0.004767183816435604
1154.0, 0.0071583202786079415
1155.0, 0.016254733359332717
1156.0, 0.01402943915904414
1157.0, 0.007719931186325512
1158.0, 0.011626658506764009
1159.0, 0.007219342500618581
1160.0, 0.0012332080519364414
1161.0, 0.003938737839923668
1162.0, 0.0008345411391121131
1163.0, 0.007484081084062751
1164.0, 0.0008577332615934588
1165.0, 0.0009857657592273249
1166.0, 0.00523496880474541
1167.0, 0.01093825475928783
1168.0, 0.013744243743842045
1169.0, 0.004320475317348001
1170.0, 0.00878446812502399
1171.0, 0.010960571648862548
1172.0, 0.013723313488895016
1173.0, 0.010191673771559884
1174.0, 0.0029957525192685647
1175.0, 0.004917436770234876
1176.0, 0.012215149060238425
1177.0, 0.01454701216164168
1178.0, 0.008048195110014646
1179.0, 0.004299914361731067
1180.0, 0.0011442821780402585
1181.0, 0.0031098211814828075
1182.0, 0.003387171695139371
1183.0, 0.017734163571063447
1184.0, 0.010710556345474779
1185.0, 0.012807224069058425
1186.0, 0.005255690124408213
1187.0, 0.0038701675897127794
1188.0, 0.0038600639177858247
1189.0, 0.013690338667376147
1190.0, 0.01267069317766529
1191.0, 0.012488606860148216
1192.0, 0.01884489113818374
1193.0, 0.013252637105843281
1194.0, 0.014810474880600066
1195.0, 0.016279614872891802
1196.0, 0.010834522670068231
1197.0, 0.009305878747083794
1198.0, 0.01318099610831613
1199.0, 0.01831587671051095
1200.0, 0.022732632446243663
1201.0, 0.015189685473316172
1202.0, 0.001336474673709103
1203.0, 0.002844889908672346
1204.0, 0.01422517308936323
1205.0, 0.022299027007283347
1206.0, 0.01614618283647541
1207.0, 0.017149043563322152
1208.0, 0.024731543090146097
1209.0, 0.02571276992411699
1210.0, 0.025653876588649666
1211.0, 0.020354572336702487
1212.0, 0.007909766093642448
1213.0, 0.014881134515098697
1214.0, 0.008002603093551316
1215.0, 0.016920753659630396
1216.0, 0.016245871086922086
1217.0, 0.014790019578423325
1218.0, 0.008372503544060677
1219.0, 0.004632253214554658
1220.0, 0.006028087827712337
1221.0, 0.0060398641959955686
1222.0, 0.011902714420453056
1223.0, 0.007513655441277325
1224.0, 0.0010366133268131115
1225.0, 0.0022274887328297215
1226.0, 0.00740431038670475
1227.0, 0.013474976835812879
1228.0, 0.016179779684684457
1229.0, 0.014018145074943348
1230.0, 0.008665384376036284
1231.0, 0.006414714815152218
1232.0, 0.0076268518537107935
1233.0, 0.001777701961178506
1234.0, 0.008012621850203561
1235.0, 0.011924278992665857
1236.0, 0.006946925564626633
1237.0, 0.01264028430132822
1238.0, 0.010876469471391466
1239.0, 0.00022689627380140438
1240.0, 0.00019741923998850205
1241, 0.0
1242, 0.0
1243, 0.0
1244, 0.0
1245, 0.0
1246, 0.0
1247, 0.0
1248, 0.0
1249, 0.0
1250, 0.0
1251, 0.0
1252, 0.0
1253, 0.0
1254, 0.0
1255, 0.0
1256, 0.0
1257, 0.0
1258, 0.0
1259, 0.0
1260, 0.0
1261, 0.0
1262, 0.0
1263, 0.0
1264, 0.0
1265, 0.0
1266, 0.0
1267, 0.0
1268, 0.0
1269, 0.0
1270, 0.0
1271, 0.0
1272, 0.0
1273, 0.0
1274, 0.0
1275, 0.0
1276, 0.0
1277, 0.0
1278, 0.0
1279, 0.0
1280, 0.0
1281, 0.0
1282, 0.0
1283, 0.0
1284, 0.0
1285, 0.0
1286, 0.0
1287, 0.0
1288, 0.0
1289, 0.0
1290, 0.0
1291, 0.0
1292, 0.0
1293, 0.0
1294, 0.0
1295, 0.0
1296, 0.0
1297, 0.0
1298, 0.0
1299, 0.0
1300, 0.0
1301, 0.0
1302, 0.0
1303, 0.0
1304, 0.0
1305, 0.0
1306, 0.0
1307, 0.0
1308, 0.0
1309, 0.0
1310, 0.0
1311, 0.0
1312, 0.0
1313, 0.0
1314, 0.0
1315, 0.0
1316, 0.0
1317, 0.0
1318, 0.0
1319, 0.0
1320, 0.0
1321, 0.0
1322, 0.0
1323, 0.0
1324, 0.0
1325, 0.0
1326, 0.0
1327, 0.0
1328, 0.0
1329, 0.0
1330, 0.0
1331, 0.0
1332, 0.0
1333, 0.0
1334, 0.0
1335, 0.0
1336, 0.0
1337, 0.0
1338, 0.0
1339, 0.0
1340, 0.0
1341, 0.0
1342, 0.0
1343, 0.0
1344, 0.0
1345, 0.0
1346, 0.0
1347, 0.0
1348, 0.0
1349, 0.0
1350, 0.0
1351, 0.0
1352, 0.0
1353, 0.0
1354, 0.0
1355, 0.0
1356, 0.0
1357, 0.0
1358, 0.0
1359, 0.0
1360, 0.0
1361, 0.0
1362, 0.0
1363, 0.0
1364, 0.0
1365, 0.0
1366, 0.0
1367, 0.0
1368, 0.0
1369, 0.0
1370, 0.0
1371, 0.0
1372, 0.0
1373, 0.0
1374, 0.0
1375, 0.0
1376, 0.0
1377, 0.0
1378, 0.0
1379, 0.0
1380, 0.0
1381, 0.0
1382, 0.0
1383, 0.0
1384, 0.0
1385, 0.0
1386, 0.0
1387, 0.0
1388, 0.0
1389, 0.0
1390, 0.0
1391, 0.0
1392, 0.0
1393, 0.0
1394, 0.0
1395, 0.0
1396, 0.0
1397, 0.0
1398, 0.0
1399, 0.0
1400, 0.0
1401, 0.0
1402, 0.0
1403, 0.0
1404, 0.0
1405, 0.0
1406, 0.0
1407, 0.0
1408, 0.0
1409, 0.0
1410, 0.0
1411, 0.0
1412, 0.0
1413, 0.0
1414, 0.0
1415, 0.0
1416, 0.0
1417, 0.0
1418, 0.0
1419, 0.0
1420, 0.0
1421, 0.0
1422, 0.0
1423, 0.0
1424, 0.0
1425, 0.0
1426, 0.0
1427, 0.0
1428, 0.0
1429, 0.0
1430, 0.0
1431, 0.0
1432, 0.0
1433, 0.0
1434, 0.0
1435, 0.0
1436, 0.0
1437, 0.0
1438, 0.0
1439, 0.0
1440, 0.0
1441, 0.0
1442, 0.0
1443, 0.0
1444, 0.0
1445, 0.0
1446, 0.0
1447, 0.0
1448, 0.0
1449, 0.0
1450, 0.0
1451, 0.0
1452, 0.0
1453, 0.0
1454, 0.0
1455, 0.0
1456, 0.0
1457, 0.0
1458, 0.0
1459, 0.0
1460, 0.0
1461, 0.0
1462, 0.0
1463, 0.0
1464, 0.0
1465, 0.0
1466, 0.0
1467, 0.0
1468, 0.0
1469, 0.0
1470, 0.0
1471, 0.0
1472, 0.0
1473, 0.0
1474, 0.0
1475, 0.0
1476, 0.0
1477, 0.0
1478, 0.0
1479, 0.0
1480, 0.0
1481, 0.0
1482, 0.0
1483, 0.0
1484, 0.0
1485, 0.0
1486, 0.0
1487, 0.0
1488, 0.0
1489, 0.0
1490, 0.0
1491, 0.0
1492, 0.0
1493, 0.0
1494, 0.0
1495, 0.0
1496, 0.0
1497, 0.0
1498, 0.0
1499, 0.0
1500, 0.0
1501, 0.0
1502, 0.0
1503, 0.0
1504, 0.0
1505, 0.0
1506, 0.0
1507, 0.0
1508, 0.0
1509, 0.0
1510, 0.0
1511, 0.0
1512, 0.0
1513, 0.0
1514, 0.0
1515, 0.0
1516, 0.0
1517, 0.0
1518, 0.0
1519, 0.0
1520, 0.0
1521, 0.0
1522, 0.0
1523, 0.0
1524, 0.0
1525, 0.0
1526, 0.0
1527, 0.0
1528, 0.0
1529, 0.0
1530, 0.0
1531, 0.0
1532, 0.0
1533, 0.0
1534, 0.0
1535, 0.0
1536, 0.0
1537, 0.0
1538, 0.0
1539, 0.0
1540, 0.0
1541, 0.0
1542, 0.0
1543, 0.0
1544, 0.0
1545, 0.0
1546, 0.0
1547, 0.0
1548, 0.0
1549, 0.0
1550, 0.0
1551, 0.0
1552, 0.0
1553, 0.0
1554, 0.0
1555, 0.0
1556, 0.0
1557, 0.0
1558, 0.0
1559, 0.0
1560, 0.0
1561, 0.0
1562, 0.0
1563, 0.0
1564, 0.0
1565, 0.0
1566, 0.0
1567, 0.0
1568, 0.0
1569, 0.0
1570, 0.0
1571, 0.0
1572, 0.0
1573, 0.0
1574, 0.0
1575, 0.0
1576, 0.0
1577, 0.0
1578, 0.0
1579, 0.0
1580, 0.0
1581, 0.0
1582, 0.0
1583, 0.0
1584, 0.0
1585, 0.0
1586, 0.0
1587, 0.0
1588, 0.0
1589, 0.0
1590, 0.0
1591, 0.0
1592, 0.0
1593, 0.0
1594, 0.0
1595, 0.0
1596, 0.0
1597, 0.0
1598, 0.0
1599, 0.0
